"Time (s)","X (rad/s)","Y (rad/s)","Z (rad/s)"
5.195416667E-3,7.401656508E-1,-3.866072744E-2,7.246591896E-2
1.514841667E-2,9.196366072E-1,1.016598940E-1,7.962289453E-2
2.510141667E-2,1.059447050E0,2.148831487E-1,9.490722418E-2
3.505441666E-2,1.146047473E0,2.927659750E-1,1.050144508E-1
4.500741667E-2,1.169470072E0,3.480811119E-1,1.138788685E-1
5.496041667E-2,1.155142784E0,3.865331709E-1,1.160386950E-1
6.491241667E-2,1.115130424E0,3.883566558E-1,1.203368604E-1
7.486541667E-2,1.053012490E0,3.812457621E-1,1.235936433E-1
8.481841667E-2,9.673228860E-1,3.287466168E-1,1.234940365E-1
9.477141667E-2,8.795900941E-1,2.378055155E-1,1.190715879E-1
1.047244167E-1,8.149059415E-1,1.309761703E-1,1.073238403E-1
1.146774167E-1,7.841597199E-1,5.533563904E-3,9.811276197E-2
1.246304167E-1,7.471859455E-1,-1.315697581E-1,1.206355765E-1
1.345834167E-1,6.921572685E-1,-2.387761027E-1,1.681402326E-1
1.445364167E-1,5.841843486E-1,-2.833717465E-1,2.263515145E-1
1.544894167E-1,3.980041146E-1,-2.656851709E-1,3.092099428E-1
1.644424167E-1,1.352109611E-1,-1.865596175E-1,4.219338894E-1
1.743954167E-1,-1.657475531E-1,-1.234807894E-1,5.504705906E-1
1.843484167E-1,-3.955672681E-1,-1.324542761E-1,6.465096474E-1
1.943014167E-1,-5.054360032E-1,-2.205378115E-1,6.743479371E-1
2.042544167E-1,-5.540292859E-1,-3.256463408E-1,6.705724001E-1
2.142074167E-1,-6.066637039E-1,-3.535487950E-1,6.782279611E-1
2.241604167E-1,-6.618062258E-1,-3.176404238E-1,7.009240985E-1
2.341134167E-1,-7.025475502E-1,-2.752471566E-1,7.269969583E-1
2.440664167E-1,-7.291006446E-1,-2.384809554E-1,7.507154346E-1
2.540194167E-1,-7.157124281E-1,-2.515831590E-1,7.600277066E-1
2.639724167E-1,-6.173680425E-1,-3.359801471E-1,7.098692060E-1
2.739254167E-1,-4.298165441E-1,-4.236207902E-1,5.928807855E-1
2.838774167E-1,-1.914143562E-1,-4.623072147E-1,4.285731018E-1
2.938304167E-1,7.473850250E-2,-4.448672235E-1,2.204579562E-1
3.037834167E-1,3.269139528E-1,-3.410285115E-1,-4.145069513E-3
3.137364167E-1,5.339811444E-1,-1.689371914E-1,-1.839236170E-1
3.236894167E-1,6.429515481E-1,5.938252807E-2,-2.670733631E-1
3.336424167E-1,6.611329317E-1,3.374256194E-1,-2.537485063E-1
3.435954167E-1,6.134495735E-1,5.871672630E-1,-1.779221892E-1
3.535484167E-1,5.524901152E-1,7.410990596E-1,-8.912494034E-2
3.635014167E-1,5.007468462E-1,7.979335189E-1,-1.414355077E-2
3.734544167E-1,4.526940882E-1,7.501028776E-1,2.750163153E-2
3.834074167E-1,3.943833709E-1,6.237430573E-1,4.220967367E-2
3.933604167E-1,3.242751360E-1,4.486103654E-1,3.859656304E-2
4.033134167E-1,2.483389378E-1,2.147482634E-1,1.543494128E-2
4.132664167E-1,1.584404707E-1,-6.334647536E-2,-1.250854321E-2
4.232194167E-1,5.359593779E-2,-3.495810628E-1,-3.438258171E-2
4.331724167E-1,-5.457047746E-2,-6.101260781E-1,-6.385738403E-2
4.431254167E-1,-1.359468251E-1,-7.972550988E-1,-9.571384639E-2
4.530784167E-1,-1.619656384E-1,-9.340568781E-1,-1.291732639E-1
4.630314167E-1,-1.266792417E-1,-1.009338856E0,-1.974691600E-1
4.729844167E-1,-5.026410520E-2,-1.021263957E0,-2.953022420E-1
4.829364167E-1,5.996891111E-2,-9.544512033E-1,-4.130869508E-1
4.928894167E-1,1.943458915E-1,-8.110343814E-1,-5.342162848E-1
5.028424167E-1,3.410162032E-1,-6.390373707E-1,-6.378234625E-1
5.127954167E-1,4.977024794E-1,-4.857809544E-1,-7.162532806E-1
5.227484167E-1,6.762000918E-1,-3.910298347E-1,-7.833292484E-1
5.327014167E-1,8.574020863E-1,-2.944332361E-1,-8.533078432E-1
5.426544167E-1,1.007824540E0,-1.918989718E-1,-9.134361744E-1
5.526074167E-1,1.097203493E0,-8.218046278E-2,-9.562920332E-1
5.625604167E-1,1.131572008E0,7.237843238E-3,-9.681748748E-1
5.725134167E-1,1.145917892E0,4.303046316E-2,-9.751424789E-1
5.824664167E-1,1.141088367E0,2.818577923E-2,-9.809833169E-1
5.924194167E-1,1.110403180E0,-5.664863624E-3,-9.774870872E-1
6.023724167E-1,1.025067091E0,-6.382462103E-3,-9.634498358E-1
6.123254167E-1,8.892785907E-1,4.633215070E-2,-9.285573959E-1
6.222784167E-1,7.259638309E-1,1.260028780E-1,-8.721312881E-1
6.322314167E-1,5.700793862E-1,1.845801622E-1,-7.672488093E-1
6.421844167E-1,4.356229305E-1,2.291863710E-1,-6.589803696E-1
6.521374167E-1,3.123433292E-1,2.404717803E-1,-5.763408542E-1
6.620904167E-1,1.839755625E-1,2.194151878E-1,-5.236488581E-1
6.720434167E-1,5.441650003E-2,1.745214760E-1,-4.972603917E-1
6.819954167E-1,-1.033783630E-1,1.445508003E-1,-4.871996939E-1
6.919484167E-1,-2.895197272E-1,1.593087018E-1,-4.692678154E-1
7.019014167E-1,-5.081021786E-1,2.058092058E-1,-3.911916614E-1
7.118544167E-1,-7.760345340E-1,2.757640779E-1,-2.351485491E-1
7.218074167E-1,-1.065407634E0,3.548709452E-1,-2.507571131E-2
7.317604167E-1,-1.328113556E0,3.979228139E-1,1.598515362E-1
7.417134167E-1,-1.537613750E0,4.265373349E-1,2.907985151E-1
7.516664167E-1,-1.697888136E0,3.898019493E-1,3.676653504E-1
7.616194167E-1,-1.795052886E0,2.779942155E-1,3.777295053E-1
7.715724167E-1,-1.847358704E0,8.550360054E-2,3.427243829E-1
7.815254167E-1,-1.867223144E0,-1.114546061E-1,2.792898417E-1
7.914784167E-1,-1.871210337E0,-2.865813971E-1,2.079679966E-1
8.014314167E-1,-1.825443149E0,-4.512498975E-1,1.203943044E-1
8.113844167E-1,-1.689837933E0,-6.011547446E-1,3.868491855E-3
8.213374167E-1,-1.465693831E0,-6.965017915E-1,-1.243914962E-1
8.312904167E-1,-1.189827085E0,-7.003806829E-1,-2.512002885E-1
8.412434167E-1,-8.996200562E-1,-5.778780580E-1,-3.677407801E-1
8.511964167E-1,-6.119123697E-1,-3.532244563E-1,-4.680332839E-1
8.611494167E-1,-3.485736251E-1,-6.337559968E-2,-5.258659720E-1
8.711014167E-1,-1.188085824E-1,2.668318748E-1,-5.176448226E-1
8.810544167E-1,4.423787445E-2,5.718938708E-1,-4.424459040E-1
8.910074167E-1,1.311855465E-1,8.181918263E-1,-2.997505367E-1
9.009604167E-1,1.618859023E-1,9.850209355E-1,-1.015754044E-1
9.109134167E-1,1.468797773E-1,1.026620269E0,1.255389750E-1
9.208664167E-1,6.093718857E-2,9.546828866E-1,3.437266052E-1
9.308194167E-1,-8.491588384E-2,7.647720575E-1,5.294243097E-1
9.407724167E-1,-2.479881197E-1,4.482805431E-1,6.580034494E-1
9.507254167E-1,-3.917210698E-1,7.453545928E-2,7.103348374E-1
9.606784167E-1,-5.059837699E-1,-2.891946137E-1,7.007998824E-1
9.706314167E-1,-5.754265189E-1,-6.109880805E-1,6.444876194E-1
9.805844167E-1,-5.621085167E-1,-8.434094191E-1,5.525134802E-1
9.905374167E-1,-4.388240874E-1,-9.849486947E-1,4.267185330E-1
1.000490417E0,-2.197229862E-1,-1.068736792E0,2.908549309E-1
1.010443417E0,5.753977597E-2,-1.072370172E0,1.480509341E-1
1.020396417E0,3.650563359E-1,-1.027021527E0,3.516007960E-2
1.030349417E0,6.440411210E-1,-9.180827737E-1,-4.820378870E-2
1.040302417E0,8.581477404E-1,-7.449634671E-1,-8.613527566E-2
1.050255417E0,9.815242887E-1,-5.293161273E-1,-8.623141795E-2
1.060207417E0,1.018890977E0,-3.230853081E-1,-6.341967732E-2
1.070160417E0,9.790809155E-1,-1.767145246E-1,7.329436485E-4
1.080113417E0,8.805386424E-1,-7.615701854E-2,1.109521315E-1
1.090066417E0,7.449142337E-1,-1.319908909E-2,2.500884533E-1
1.100019417E0,5.896506906E-1,2.507213876E-2,3.843455315E-1
1.109972417E0,4.326688051E-1,3.128289804E-2,4.902906120E-1
1.119925417E0,2.787200809E-1,1.191846374E-2,5.747971535E-1
1.129878417E0,1.526034176E-1,-9.884038009E-3,6.834107041E-1
1.139831417E0,8.773554862E-2,-5.461847037E-2,7.980941534E-1
1.149784417E0,6.026877090E-2,-1.714649349E-1,8.995507956E-1
1.159737417E0,4.183652624E-2,-3.520996869E-1,9.717805386E-1
1.169690417E0,1.777939312E-2,-5.332093239E-1,1.006223679E0
1.179643417E0,-1.593781263E-2,-6.984930038E-1,1.006233573E0
1.189596417E0,-9.166213870E-2,-8.247422576E-1,9.647052884E-1
1.199549417E0,-1.976841092E-1,-8.920848966E-1,8.984760642E-1
1.209502417E0,-2.858517766E-1,-8.847109079E-1,8.516339660E-1
1.219455417E0,-3.471227884E-1,-8.470092416E-1,8.185786009E-1
1.229408417E0,-3.588638902E-1,-7.863184810E-1,7.937358618E-1
1.239360417E0,-3.040379882E-1,-7.246003747E-1,7.565532923E-1
1.249313417E0,-1.956715584E-1,-7.015805244E-1,6.977243423E-1
1.259266417E0,-9.844703972E-2,-6.607901454E-1,6.026765704E-1
1.269219417E0,-6.868781149E-2,-5.317754149E-1,5.085293055E-1
1.279172417E0,-9.874828160E-2,-3.517852426E-1,4.339203238E-1
1.289125417E0,-1.481033266E-1,-1.777125150E-1,3.688411713E-1
1.299078417E0,-1.604554653E-1,-4.148334265E-2,3.394873738E-1
1.309031417E0,-7.248006016E-2,1.149385516E-2,3.014768958E-1
1.318984417E0,1.127590016E-1,-1.568421349E-2,2.215873748E-1
1.328937417E0,3.637528718E-1,-1.144856215E-1,7.687147707E-2
1.338890417E0,6.494925618E-1,-2.655300200E-1,-1.285606772E-1
1.348843417E0,9.262520075E-1,-3.717837632E-1,-3.597603440E-1
1.358796417E0,1.146489263E0,-4.103123844E-1,-5.640115738E-1
1.368749417E0,1.311904788E0,-3.865652680E-1,-7.020120621E-1
1.378702417E0,1.421077490E0,-2.989616990E-1,-7.616220117E-1
1.388655417E0,1.476298690E0,-1.479663402E-1,-7.563891411E-1
1.398608417E0,1.468383908E0,6.695403904E-2,-6.933650374E-1
1.408561417E0,1.386893272E0,3.529860377E-1,-5.778541565E-1
1.418513417E0,1.242800713E0,6.668747067E-1,-4.056558311E-1
1.428466417E0,1.034451485E0,9.464496374E-1,-2.062985301E-1
1.438419417E0,8.081686497E-1,1.121538043E0,1.084984187E-2
1.448372417E0,6.181030869E-1,1.168583393E0,1.940905154E-1
1.458325417E0,4.992423356E-1,1.084686995E0,3.062575459E-1
1.468278417E0,4.657781124E-1,8.626978993E-1,3.542205393E-1
1.478231417E0,4.934212565E-1,5.328336954E-1,3.337273896E-1
1.488184417E0,5.592543483E-1,1.833568960E-1,2.665148079E-1
1.498137417E0,6.050849557E-1,-1.149129868E-1,1.598847061E-1
1.508090417E0,5.958035588E-1,-3.377718925E-1,4.310509190E-2
1.518043417E0,5.511403084E-1,-4.562606812E-1,-5.352301896E-2
1.527996417E0,5.278221965E-1,-4.961806536E-1,-1.093500629E-1
1.537949417E0,5.624797344E-1,-4.887982905E-1,-1.569332033E-1
1.547902417E0,6.481642723E-1,-4.598100483E-1,-1.918680072E-1
1.557855417E0,7.618061304E-1,-3.571461141E-1,-1.883917749E-1
1.567808417E0,8.455327153E-1,-2.156558484E-1,-1.429907382E-1
1.577761417E0,8.596390486E-1,-7.573679090E-2,-8.433055133E-2
1.587713417E0,8.147330880E-1,7.435017824E-2,-3.648060374E-4
1.597666542E0,7.471041679E-1,2.094519138E-1,8.011690527E-2
1.607619542E0,6.798846126E-1,2.702899575E-1,1.432223618E-1
1.617572542E0,6.308519840E-1,2.672057748E-1,1.737879068E-1
1.627525542E0,5.848591924E-1,2.368417531E-1,1.805278212E-1
1.637478542E0,5.121247172E-1,1.924813390E-1,1.829826534E-1
1.647431542E0,3.980537951E-1,1.333985776E-1,1.891561300E-1
1.657384542E0,2.569104433E-1,6.617614627E-2,2.007586211E-1
1.667337542E0,1.137277037E-1,2.301163226E-2,1.988430172E-1
1.677290542E0,-1.255623903E-2,1.314697880E-2,1.916398853E-1
1.687243542E0,-1.010208577E-1,5.947826058E-2,2.220768929E-1
1.697196542E0,-1.404572427E-1,1.202550754E-1,2.964195609E-1
1.707149542E0,-1.274572909E-1,1.523490995E-1,3.666708171E-1
1.717102542E0,-9.783281386E-2,1.645016372E-1,3.998420835E-1
1.727055542E0,-1.069136560E-1,1.633106768E-1,4.101919234E-1
1.737008542E0,-1.499097645E-1,1.768469661E-1,3.939917386E-1
1.746961542E0,-2.362891287E-1,2.323387265E-1,3.574326634E-1
1.756914542E0,-3.385885954E-1,3.015320301E-1,3.381630778E-1
1.766866542E0,-4.307395518E-1,3.948814273E-1,3.579533100E-1
1.776819542E0,-4.842705727E-1,4.662320316E-1,3.866910338E-1
1.786772542E0,-4.822782576E-1,4.949417114E-1,4.178156853E-1
1.796725542E0,-4.493623674E-1,4.744839370E-1,4.384072423E-1
1.806678542E0,-4.422141910E-1,4.296906292E-1,4.845805764E-1
1.816631542E0,-5.204610825E-1,4.350991845E-1,5.733445287E-1
1.826584542E0,-6.914855838E-1,4.450394213E-1,6.961932182E-1
1.836537542E0,-8.959958553E-1,3.697586060E-1,8.403328657E-1
1.846490542E0,-1.045940161E0,2.351416647E-1,9.496079683E-1
1.856443542E0,-1.062900901E0,1.466646418E-2,9.602885246E-1
1.866396542E0,-9.502199292E-1,-2.655667961E-1,8.758801222E-1
1.876349542E0,-7.351941466E-1,-5.042827725E-1,7.552350163E-1
1.886302542E0,-4.775750935E-1,-6.019565463E-1,6.430983543E-1
1.896255542E0,-2.441352010E-1,-4.991007447E-1,5.768881440E-1
1.906208542E0,-9.002419561E-2,-2.334437966E-1,6.059413552E-1
1.916161542E0,-1.376729086E-2,7.504824549E-2,7.320891619E-1
1.926114542E0,2.454627678E-2,3.039360046E-1,8.629262447E-1
1.936067542E0,5.170338973E-2,4.495373964E-1,9.739357233E-1
1.946019542E0,8.604484797E-2,5.208173990E-1,1.077175975E0
1.955972542E0,1.311673075E-1,5.051419139E-1,1.185473204E0
1.965925542E0,1.791582704E-1,4.004911780E-1,1.302436829E0
1.975878542E0,2.165438533E-1,2.481331229E-1,1.399110317E0
1.985831542E0,1.729114205E-1,1.157391518E-1,1.488963723E0
1.995784542E0,2.028409578E-2,2.198067866E-2,1.610231042E0
2.005737542E0,-1.789373904E-1,-6.402850151E-2,1.748358250E0
2.015690542E0,-3.301944435E-1,-2.210515738E-1,1.818274021E0
2.025643542E0,-3.522880375E-1,-4.325906932E-1,1.786946297E0
2.035596542E0,-2.344197035E-1,-6.284354329E-1,1.670556307E0
2.045549542E0,-2.175750956E-2,-7.739726901E-1,1.493847489E0
2.055502542E0,2.236250639E-1,-7.910459042E-1,1.326521397E0
2.065455542E0,4.547696114E-1,-6.875634789E-1,1.239847779E0
2.075408542E0,6.651967764E-1,-4.806896448E-1,1.251199365E0
2.085361542E0,8.263893723E-1,-2.338945121E-1,1.341328979E0
2.095314542E0,9.376864433E-1,-1.141924039E-2,1.460119963E0
2.105267542E0,1.021594644E0,1.375127137E-1,1.542018533E0
2.115220542E0,1.087845445E0,2.054565996E-1,1.537916780E0
2.125173542E0,1.130985975E0,1.843891293E-1,1.463864446E0
2.135126542E0,1.156923294E0,1.510913819E-1,1.363965750E0
2.145078542E0,1.167726159E0,1.125125736E-1,1.257836938E0
2.155031542E0,1.163777590E0,7.897600532E-2,1.181281924E0
2.164984542E0,1.149195671E0,6.010644138E-2,1.151447296E0
2.174937542E0,1.152135015E0,2.579500154E-2,1.152091146E0
2.184890542E0,1.151709914E0,-2.716268413E-3,1.167956233E0
2.194843542E0,1.102691054E0,5.232226104E-4,1.202999115E0
2.204796542E0,1.000309706E0,3.728763014E-2,1.244930625E0
2.214749542E0,8.591260314E-1,9.242743999E-2,1.282258272E0
2.224702542E0,7.182775736E-1,1.336552948E-1,1.310559988E0
2.234655542E0,6.030675173E-1,1.724657416E-1,1.309925914E0
2.244608542E0,4.930520356E-1,2.113241851E-1,1.280896902E0
2.254561542E0,3.665960729E-1,2.471838146E-1,1.242323399E0
2.264514542E0,2.199565768E-1,2.023031563E-1,1.198827863E0
2.274467542E0,5.423364788E-2,7.716974616E-2,1.133546591E0
2.284420542E0,-1.121598557E-1,-5.353420228E-2,1.064895868E0
2.294373542E0,-2.538970411E-1,-1.558744758E-1,9.910679460E-1
2.304326542E0,-3.716567159E-1,-1.896345615E-1,9.219967127E-1
2.314279542E0,-4.716120064E-1,-1.446278989E-1,8.759883046E-1
2.324232542E0,-5.143021941E-1,-1.081631109E-1,8.285640478E-1
2.334185542E0,-4.585506320E-1,-1.690327376E-1,7.730932236E-1
2.344137542E0,-3.289510906E-1,-2.812221050E-1,7.139132619E-1
2.354090542E0,-1.682634801E-1,-3.591862023E-1,6.192901134E-1
2.364043542E0,-1.787557825E-2,-3.847818673E-1,4.860596061E-1
2.373996542E0,1.239527240E-1,-3.465105593E-1,3.327006996E-1
2.383949542E0,2.606410682E-1,-2.328718752E-1,1.656328738E-1
2.393902542E0,4.013228714E-1,-4.471497983E-2,-3.634362947E-3
2.403855542E0,5.400376320E-1,2.097298205E-1,-1.451800466E-1
2.413808542E0,6.278556585E-1,5.236332417E-1,-2.340297401E-1
2.423761542E0,6.353279948E-1,8.914474845E-1,-2.522955537E-1
2.433714542E0,5.585530400E-1,1.210644245E0,-1.767854840E-1
2.443667542E0,4.352273643E-1,1.385926843E0,-5.093673989E-2
2.453620542E0,3.083154559E-1,1.430314064E0,7.664264739E-2
2.463573542E0,1.759664714E-1,1.377425909E0,1.823011637E-1
2.473526542E0,4.475532100E-2,1.227966189E0,2.511727214E-1
2.483479542E0,-7.464990020E-2,1.047110200E0,2.931958139E-1
2.493432542E0,-1.745249629E-1,8.621689677E-1,3.250117004E-1
2.503385542E0,-2.837017775E-1,7.648107409E-1,3.638805449E-1
2.513338542E0,-4.868312776E-1,7.832903862E-1,4.548412561E-1
2.523291542E0,-7.578874826E-1,8.476118445E-1,6.010583639E-1
2.533244542E0,-9.926296473E-1,7.989053130E-1,7.459112406E-1
2.543197542E0,-1.100166321E0,6.403931975E-1,8.485550880E-1
2.553150542E0,-1.079502344E0,3.737965822E-1,9.042419195E-1
2.563102542E0,-9.291782975E-1,7.855191827E-2,8.608305454E-1
2.573055542E0,-6.867247224E-1,-1.936606467E-1,7.177757025E-1
2.583008542E0,-4.195404351E-1,-3.759311438E-1,5.216605067E-1
2.592962208E0,-2.135331333E-1,-4.035771191E-1,3.610187173E-1
2.602915208E0,-7.394833863E-2,-3.026811182E-1,2.886039019E-1
2.612868208E0,3.810495883E-2,-1.281309724E-1,3.068920076E-1
2.622821208E0,1.595965028E-1,3.476020321E-2,3.882829845E-1
2.632774208E0,2.920058668E-1,1.735368371E-1,4.786807299E-1
2.642727208E0,4.115032554E-1,2.852026522E-1,5.382961035E-1
2.652680208E0,4.806357026E-1,3.526585102E-1,5.581904650E-1
2.662633208E0,5.111949444E-1,3.672448993E-1,5.379046202E-1
2.672586208E0,5.286898613E-1,3.362372816E-1,4.879425466E-1
2.682539208E0,5.637552142E-1,2.953660190E-1,4.224618077E-1
2.692492208E0,6.265453696E-1,2.501920462E-1,3.488269746E-1
2.702445208E0,6.853820086E-1,1.993991882E-1,2.790982127E-1
2.712398208E0,7.130469084E-1,1.796382368E-1,2.416401058E-1
2.722351208E0,7.160230279E-1,1.980851442E-1,2.284721136E-1
2.732304208E0,6.852820516E-1,2.632713616E-1,2.089571208E-1
2.742257208E0,5.784826279E-1,3.665964305E-1,1.875990927E-1
2.752210208E0,3.881875873E-1,5.346707106E-1,1.600471735E-1
2.762163208E0,1.436598599E-1,7.431978583E-1,1.283238530E-1
2.772116208E0,-1.043025628E-1,9.608803988E-1,1.338764876E-1
2.782069208E0,-3.030356467E-1,1.156093359E0,2.283952683E-1
2.792021208E0,-4.305846989E-1,1.240996599E0,3.730902374E-1
2.801974208E0,-4.939604700E-1,1.181761980E0,4.976878166E-1
2.811927208E0,-5.037617087E-1,1.079825044E0,5.170607567E-1
2.821880208E0,-5.483126640E-1,1.056132197E0,4.659637213E-1
2.831833208E0,-6.872578859E-1,1.182929397E0,4.382044077E-1
2.841786208E0,-8.942153454E-1,1.312652469E0,5.008196235E-1
2.851739208E0,-1.047561646E0,1.336851001E0,6.241070628E-1
2.861692208E0,-1.159715295E0,1.261840940E0,7.627978325E-1
2.871645208E0,-1.280921578E0,1.113283038E0,9.184151888E-1
2.881598208E0,-1.380734205E0,9.142417908E-1,1.040319800E0
2.891551208E0,-1.414469361E0,6.464567780E-1,1.057337761E0
2.901504208E0,-1.340826511E0,3.018312156E-1,9.651889205E-1
2.911457208E0,-1.239623785E0,-6.014666706E-2,8.122555017E-1
2.921410208E0,-1.088491201E0,-2.961645424E-1,6.158319712E-1
2.931363208E0,-8.862792850E-1,-3.609184027E-1,4.070436358E-1
2.941316208E0,-6.420567632E-1,-3.200434148E-1,2.324212492E-1
2.951269208E0,-3.993891180E-1,-1.964028925E-1,1.391987354E-1
2.961222208E0,-2.068588436E-1,6.624522619E-3,1.512665749E-1
2.971175208E0,-1.442000419E-1,2.985489666E-1,2.455065101E-1
2.981128208E0,-2.595828176E-1,6.621726751E-1,4.282366633E-1
2.991081208E0,-5.122191310E-1,1.047232509E0,6.596450210E-1
3.001034208E0,-8.092199564E-1,1.388536096E0,8.757328391E-1
3.010987208E0,-1.078179955E0,1.562685370E0,1.057441711E0
3.020940208E0,-1.210863709E0,1.556345701E0,1.159983277E0
3.030893208E0,-1.209686279E0,1.254491687E0,1.153464198E0
3.040846208E0,-1.184985757E0,7.383881807E-1,1.053988695E0
3.050799208E0,-1.004589200E0,4.070182443E-1,8.937516809E-1
3.060752208E0,-6.574663520E-1,2.452394515E-1,7.183716297E-1
3.070704208E0,-2.413626909E-1,2.158861607E-1,5.479865670E-1
3.080657208E0,1.175312772E-1,2.270461470E-1,4.341015518E-1
3.090610208E0,3.459594250E-1,2.623628974E-1,4.275728762E-1
3.100563208E0,4.624447823E-1,3.286052942E-1,5.195959806E-1
3.110516208E0,5.191071033E-1,3.816610277E-1,6.776392460E-1
3.120469208E0,5.337518454E-1,4.342179596E-1,8.342270255E-1
3.130422208E0,5.370151997E-1,4.993092120E-1,9.738953114E-1
3.140375208E0,5.795541406E-1,5.799801350E-1,1.078076363E0
3.150328208E0,6.560895443E-1,7.245382071E-1,1.117964625E0
3.160281208E0,7.545948029E-1,9.608130455E-1,1.085203528E0
3.170234208E0,8.389005661E-1,1.256649137E0,1.028866291E0
3.180187208E0,9.553145170E-1,1.416181564E0,9.598369002E-1
3.190140208E0,1.079612136E0,1.558529377E0,8.930611610E-1
3.200093208E0,1.178124785E0,1.677832127E0,8.514327407E-1
3.210046208E0,1.251882672E0,1.696434259E0,8.571553826E-1
3.219999208E0,1.264418125E0,1.602746606E0,9.304903150E-1
3.229952208E0,1.244684219E0,1.331222892E0,1.060673594E0
3.239905208E0,1.198841572E0,1.004856944E0,1.189220905E0
3.249858208E0,1.126159549E0,7.310225964E-1,1.255833387E0
3.259811208E0,1.026669979E0,5.252513289E-1,1.232824206E0
3.269764208E0,8.815037608E-1,4.374730587E-1,1.144424319E0
3.279717208E0,7.015856504E-1,4.353630543E-1,1.034754038E0
3.289670208E0,5.094898343E-1,4.751023948E-1,9.280924797E-1
3.299623208E0,3.416505158E-1,4.740693569E-1,8.693050742E-1
3.309576208E0,2.160232812E-1,4.040694535E-1,8.480556011E-1
